Pressure (bar),MgMOF74 (cm3/gr),PCN61(cm3/gr),DUT32(cm3/gr),DUT49(cm3/gr),MOF177(cm3/gr),NU800(cm3/gr),UIO66(cm3/gr),ZIF8(cm3/gr),IRMOF1(cm3/gr),IRMOF10(cm3/gr),IRMOF16(cm3/gr)
0.00001,0.000295005,0.000389549,0.000143853,0.000284286,0.000341544,0.000172211,0.001032566,0.000410331,7.28E-05,0.000336793,0.000228424
0.00002125,0.000777187,0.000944733,0.000313727,0.000686801,0.000310662,0.000294714,0.001851424,0.000593703,0.000192905,0.000571563,0.000309516
0.0000325,0.001225132,0.00135034,0.000497825,0.001023569,0.000488622,0.000422238,0.002740505,0.000948583,0.000341456,0.000797479,0.000420427
0.00004375,0.001643875,0.001688001,0.000686928,0.001322499,0.000769417,0.000553961,0.003678385,0.001364169,0.000497484,0.001017638,0.00054691
0.000055,0.002047611,0.002039492,0.000877126,0.001635256,0.001127186,0.000689437,0.004652082,0.00178049,0.000652137,0.001233589,0.000685271
0.00006625,0.002444694,0.002435632,0.001066611,0.001984585,0.001537251,0.000828324,0.005652692,0.002168694,0.00080266,0.001446248,0.000833646
0.0000775,0.002839493,0.002883069,0.001254539,0.002375982,0.001976978,0.000970343,0.006673801,0.002521467,0.000948892,0.001656222,0.000990787
0.00008875,0.0032342,0.003378105,0.001440541,0.002806535,0.002428377,0.001115261,0.007710644,0.002842419,0.001091618,0.001863941,0.001155737
0.0001,0.003629847,0.003912426,0.001624497,0.003269283,0.002878728,0.001262877,0.008759601,0.003139028,0.001231868,0.002069726,0.001327708
0.00011,0.003982664,0.004412144,0.001786304,0.003700658,0.003271538,0.001396216,0.009699898,0.003388575,0.001355258,0.002251226,0.001485917
0.00022125,0.007957561,0.009893976,0.003500428,0.008396008,0.006903416,0.00298824,0.020351623,0.006149212,0.002767523,0.004209909,0.003484127
0.0003325,0.011919114,0.013920399,0.005123512,0.011941522,0.009894008,0.004724913,0.030969614,0.009495312,0.004366472,0.006103656,0.005710592
0.00044375,0.015809931,0.017405565,0.006710605,0.015166093,0.012921138,0.006557753,0.041416514,0.013181926,0.006127972,0.007962137,0.00799612
0.000555,0.019635247,0.021041796,0.008285835,0.018581743,0.016150875,0.008457671,0.05169802,0.016903022,0.007982282,0.009798291,0.010262808
0.00066625,0.023413375,0.025010075,0.009860378,0.022266175,0.019594731,0.010405373,0.061843424,0.020516967,0.009871148,0.011619138,0.012477898
0.0007775,0.027161578,0.029299883,0.011439606,0.026155143,0.023223575,0.012387347,0.0718822,0.023990255,0.01175472,0.01342897,0.01463139
0.00088875,0.030893278,0.033843793,0.013026073,0.030157833,0.026999418,0.014393786,0.081839305,0.027337943,0.013608836,0.015230624,0.016724494
0.001,0.034618215,0.038565343,0.014620867,0.034195484,0.030885338,0.016417399,0.091734871,0.030590141,0.015420759,0.017026076,0.018763571
0.0011,0.037966376,0.04290439,0.016061757,0.037807793,0.034445193,0.018246454,0.100590509,0.033457061,0.017009149,0.018635865,0.020557221
0.0022125,0.075713095,0.090575052,0.032478854,0.074835832,0.074265,0.038646407,0.198429335,0.064964638,0.032748128,0.036434624,0.039562979
0.003325,0.11436809,0.13520736,0.049288124,0.111277473,0.110437656,0.058512035,0.297149562,0.097474009,0.04755449,0.054217306,0.059281897
0.0044375,0.153434781,0.179724554,0.066204793,0.150172919,0.143218638,0.07773423,0.39732985,0.130191028,0.063172541,0.072065082,0.080461801
0.00555,0.192593273,0.224870143,0.083105134,0.190154244,0.174005958,0.096429682,0.498751592,0.162735954,0.079906432,0.08999274,0.102667799
0.0066625,0.231703605,0.270320373,0.099939587,0.229741688,0.203772563,0.114722347,0.601099517,0.195161012,0.09762852,0.107999013,0.12531323
0.007775,0.270719623,0.315675681,0.116691903,0.268255705,0.233099465,0.132712813,0.704087645,0.227603692,0.116099375,0.126077912,0.147920795
0.0088875,0.309638997,0.360696465,0.13336102,0.305645913,0.262321937,0.150478296,0.807479626,0.260169711,0.135071841,0.144222211,0.170172254
0.01,0.348478029,0.405300259,0.149952675,0.342178195,0.291629806,0.168077415,0.911085683,0.292914437,0.154327262,0.162424674,0.191891226
0.011,0.383339624,0.445054339,0.164807403,0.374581428,0.318133627,0.183791876,1.004272289,0.32251316,0.171728355,0.178830457,0.210900451
0.022125,0.771781443,0.883513978,0.328049124,0.748625442,0.62598432,0.356664543,2.027573045,0.656726856,0.354267691,0.363062451,0.400746423
0.03325,1.16546287,1.338930487,0.490866024,1.143253803,0.947199216,0.531075508,3.008139453,0.986578087,0.513607417,0.548359033,0.590601789
0.044375,1.563382301,1.803151841,0.654995911,1.522030117,1.270250932,0.708240767,3.944461754,1.311170168,0.665377065,0.733254564,0.799529029
0.0555,1.962996521,2.262546911,0.82065941,1.886011319,1.591497422,0.887630324,4.842172583,1.636069922,0.819369513,0.91717622,1.023474554
0.066625,2.362452115,2.711040125,0.98766368,2.248043225,1.910626084,1.068589679,5.706948299,1.964998116,0.979253315,1.099908316,1.254492265
0.07775,2.760665913,3.147669829,1.155721529,2.617134939,2.228287528,1.250579708,6.543488134,2.29947802,1.145831909,1.281395947,1.485998971
0.088875,3.157108179,3.573765271,1.324549824,2.997013726,2.545248916,1.433194256,7.35553447,2.639670114,1.318677885,1.461661001,1.71375279
0.1,3.551605205,3.9913693,1.493898861,3.387911404,2.862139024,1.616137648,8.146059067,2.985031296,1.496868953,1.640762421,1.93555835
0.11,3.904581573,4.361184461,1.646392867,3.747385061,3.147293436,1.780686513,8.840247542,3.299181775,1.660714003,1.800821853,2.12922852
0.22125,7.777081273,8.366508268,3.334930713,7.826141746,6.360551302,3.60156796,15.81266956,6.865494161,3.535648559,3.538918301,4.063703094
0.3325,11.68732492,12.36771629,4.983048532,11.57152688,9.608879366,5.405538458,21.86346925,10.34292318,5.26241375,5.23901054,6.010612207
0.44375,15.72652118,16.32305202,6.593079346,15.1294524,12.84952319,7.214378119,27.28509897,13.7328621,6.822400662,6.935016547,8.134577738
0.555,19.90910398,20.17353031,8.178162309,18.69756142,16.08715056,9.045734107,32.21468808,17.11706966,8.292875706,8.643927049,10.39150879
0.66625,24.22204589,23.90296853,9.750202403,22.35351447,19.34336031,10.91039811,36.73713016,20.55076519,9.73589695,10.37488515,12.71326505
0.7775,28.6435618,27.52096621,11.31843226,26.11332983,22.64050336,12.81460629,40.91254319,24.05990972,11.19138477,12.13304398,15.04525868
0.88875,33.15012826,31.04808831,12.88976229,29.96864862,25.99685626,14.76177307,44.78671016,27.65107772,12.68396082,13.92135015,17.35095379
1,37.71921658,34.50768491,14.46933157,33.90317862,29.4259698,16.75355388,48.39604378,31.31935825,14.22874402,15.74144958,19.60884723
1.1,41.86266181,37.57820804,15.89937947,37.49302742,32.57825361,18.58245317,51.43904897,34.67325629,15.66959337,17.40533297,21.58868428
2.2125,87.31876775,72.16336874,32.83834301,78.40473449,72.57395829,41.20943747,76.45430352,72.43326694,35.52139218,37.66162457,40.90551715
3.325,127.3015082,110.3978832,51.94923998,118.4531809,119.9313639,67.07297448,92.0687869,104.4714584,61.55784618,60.71062036,58.55281131
4.4375,160.5642267,151.362343,73.07089494,157.3021514,171.0248896,94.89481503,102.8782981,128.4672951,91.57270619,85.91174929,77.19053644
5.55,187.9268435,192.8001636,95.88174963,195.2824582,222.8690549,123.7077603,110.8568651,145.9198667,123.4888967,112.7227772,97.68571103
6.6625,210.4901661,232.8625347,120.0600558,232.5711628,273.4910313,152.8158137,117.0145134,158.7272021,155.74246,140.7060399,120.2937333
7.775,229.2248818,270.3682202,145.3135525,269.2104412,321.7258544,181.7248365,121.9271568,168.3598535,187.2717019,169.507926,145.0447552
8.8875,244.9082373,304.7095152,171.3845758,305.1718013,366.9672273,210.0880314,125.9489859,175.8294401,217.4138704,198.841156,171.8687775
10,258.1451607,335.6866012,198.0488497,340.3966829,408.9700353,237.6660633,129.3104823,181.8080712,245.7953786,228.471232,200.6440631
11,268.34408,360.7049707,222.3625787,371.375916,443.9398036,261.6513767,131.8988079,186.2794461,269.6568376,255.1992366,228.0507605
20.88888889,321.8887735,504.43214,460.3960037,635.7386372,675.202672,450.7754238,146.4800468,211.6907361,429.2849606,506.489818,550.6234828
30.77777778,339.909747,559.591124,663.9042302,820.730651,784.6007321,563.3090662,153.2579603,225.6222175,502.9156425,711.5291875,893.3115181
40.66666667,346.3260037,587.5070188,821.7951806,940.4693413,841.0084981,625.1051967,157.424682,234.6933132,539.8188129,866.2604047,1192.306057
50.55555556,347.8010757,604.5061979,938.3904447,1013.139082,871.6835598,655.5922694,160.3538398,240.4517417,560.2625589,978.1044856,1426.701145
60.44444444,346.8400615,615.5457522,1021.280876,1053.291941,888.298298,666.8700934,162.5749275,243.796845,572.5587702,1055.871939,1597.625035
70.33333333,344.5715706,622.5428712,1077.755868,1071.3342,896.480765,666.3244266,164.3401613,245.3682117,580.4124158,1107.291219,1714.473001
80.22222222,341.5688171,626.4748664,1113.906217,1074.455771,899.2420376,658.5104876,165.7875392,245.6348456,585.6205171,1138.584768,1788.299526
90.11111111,338.1483906,627.9718426,1134.564494,1067.580498,898.3370092,646.2833737,167.0003519,244.9427847,589.1237908,1154.603935,1829.188369
100,334.4960334,627.5031861,1143.482086,1054.082388,894.861788,631.4599313,168.0326738,243.5483878,591.4499093,1159.08358,1845.470748
